coupler,coupler,$D^a [mM]$,$D^a [mM]$,$I_{islet}^a\ [pg/islet]$,$I_{islet}^a\ [pg/islet]$,$\gamma^b$,$\gamma^b$,$I_{cell}^b [pg/islet]$,$I_{cell}^b [pg/islet]$,$G^b [mM]$,$G^b [mM]$
2.69744458965215,0.6282086601936169,0.5037761345650754,0.07071560881174126,2.599494300293896,0.14142824489649167,10.998612280458884,0.3292401836543316,2.4246252161776414,0.1403192821391977,3.247222090810258,0.17750869090209073
2.978432245986369,0.5967104019942853,0.5113275244270689,0.0998884433875592,2.9440550043177502,0.16350921224388237,10.997329845339554,0.4673766897759531,2.816829496232806,0.19253097867577354,3.2940782550418417,0.25301684237708155
3.2582770572225854,0.5771237537442863,0.5206142890948255,0.12209478587578951,3.236802587298659,0.17476636736382611,10.996174290657573,0.5696660435128292,3.183912052991755,0.22786424937259014,3.340634162065523,0.3096503166169838
3.536946810853806,0.5727945698780625,0.531187755026766,0.1405778434572407,3.518237708909383,0.18423205815633867,10.99515390356143,0.6517736411312814,3.531133246400157,0.2547987643537553,3.3869067859324353,0.3557849672577937
3.8144687508929565,0.5836560371149022,0.542863067328611,0.1562523955391536,3.7964813334310694,0.191910553784387,10.99426475199609,0.7202975491241987,3.862523554611754,0.2772345385929098,3.432909762076186,0.39495098502027937
4.0908443764292315,0.6069508742249564,0.5555317063701785,0.16975808167003145,4.073165444755817,0.1988781306895589,10.993490485002416,0.7782857121994305,4.18123588632608,0.29656950638607127,3.4786702785541648,0.4287514004829065
4.3660586067499025,0.6387415493006863,0.5691059568260961,0.18123929455293325,4.348602784179289,0.20372881206515941,10.992834320254232,0.8270852443885368,4.489546394792414,0.3135526848461832,3.524168320531341,0.45787751909137636
4.640129898430132,0.6751787235967531,0.5835152659541967,0.19164993949590495,4.622872691609649,0.21230468970927396,10.992283809138216,0.8679321631585316,4.7893824052225185,0.3285328768560656,3.5694196277170382,0.4829485043362747
4.913031062609662,0.7131799420023857,0.5987025675519045,0.2011220996066311,4.89596480880119,0.22048224082700207,10.991816968779043,0.9028001329595302,5.082319650129879,0.34241039973678733,3.614465135525365,0.5050020466931815
5.184734149936048,0.7511264768681145,0.6146357816619975,0.20946487641705272,5.167860759193108,0.22512201682427507,10.991425299799326,0.9331883029246003,5.369503255204273,0.35611410718033554,3.659316045563762,0.5248393258973542
5.455473879812416,0.7888290155596306,0.6312403440842813,0.21702586441200042,5.438742208257995,0.23212247613920237,10.991117686326989,0.9571357878575933,5.651787154881631,0.3670903483777214,3.7039402633922407,0.5412751712113114
5.724552655534353,0.825196491472487,0.648490965616423,0.22399010342857995,5.708087208429422,0.23899934192217337,10.990870542175346,0.978062466123579,5.929956149164352,0.3785177539241967,3.748395041045628,0.5562164130247329
5.992673196742544,0.8607424961548651,0.6663870934317148,0.23050059284846935,5.976357170259699,0.24449208017673882,10.990689464728847,0.9949910780895721,6.2045594501117165,0.38881423403755455,3.792658022893156,0.5690535742440402
6.2597105623281095,0.895082515180506,0.6848817630262166,0.2362845150631156,6.243541527803084,0.24759344496335153,10.990569126228277,1.0084648033702102,6.476107159497011,0.39819593158048017,3.8367399583786503,0.5800507876936989
6.525013708056576,0.9276444559606905,0.7039091866768614,0.24163999915187767,6.509117090106538,0.25399353061545027,10.990504071686784,1.0194684349710776,6.7448790018770435,0.40750467128144446,3.8806521142039543,0.5897449931379533
6.789236964255906,0.9593073627630543,0.7234945090067473,0.24703948679106577,6.773504296119829,0.2614175982877419,10.990486007163595,1.0279142356673328,7.01123046332871,0.4156137048459025,3.9244143117785306,0.5980262331799592
7.052360637564561,0.9897791059917795,0.7435896582005904,0.2518641729215225,7.036768744138741,0.2644119341457878,10.990499197674266,1.036384442731522,7.275507549365175,0.425165880547654,3.968076025314726,0.6063941623059386
7.314060958380651,1.0190351055829359,0.7642029520951172,0.25678990041763416,7.298672168888159,0.27101933561467667,10.99056299833311,1.0438419039652258,7.537711329958048,0.4355515687829792,4.011576866906276,0.6142576179144564
7.574889470090056,1.0475365998096984,0.78527371142303,0.26127144172555544,7.55959780743619,0.2747276587636162,10.990664384552158,1.0489829622601223,7.798117861399257,0.443097419784686,4.054952842233552,0.6207542772173353
7.834022914650632,1.0746150600942197,0.8068333471048144,0.2660473484664475,7.818974250920598,0.2819481375478297,10.990827329295827,1.0521778464786358,8.056675844566188,0.4510124181956135,4.098136844267797,0.6261569218551272
8.092179617049624,1.1012426310417556,0.828818898352521,0.27056630055155284,8.07725175154843,0.2866116383027075,10.991012246349506,1.0554553845814394,8.31373504574779,0.4584799755460757,4.141255167396776,0.6315827037130954
8.348547726194738,1.1266055386677445,0.8512442289394067,0.275025626131065,8.333879829900589,0.2910873415970236,10.991231747319532,1.0588210186760278,8.569192533159214,0.4666534845647186,4.184274992306177,0.6370713862861211
8.604120773210525,1.15131604313078,0.8740735831141083,0.2791866215852686,8.589538378057336,0.2941371230658845,10.991482245085116,1.0617587083535598,8.823218752754237,0.4738567344857712,4.227213436472079,0.6422816446051748
8.857764502103237,1.1749777997334225,0.8973359336676288,0.28385105480915596,8.843460555052364,0.3019919876402453,10.99178216743156,1.0636102349434433,9.075643409518504,0.4809424990933174,4.270012543597006,0.6468473265643334
9.110030001940686,1.198007332549115,0.9209112072961831,0.2875484824253959,9.09592243908234,0.3020480474402103,10.99212996032833,1.0647816154326633,9.32651642241816,0.48824082047080364,4.312678576001443,0.6510042539420962
9.36142556750383,1.2205461932751425,0.944910191155975,0.29152270683864834,9.347404956251975,0.3061200307362711,10.992513241030753,1.0665863643708937,9.576034572578957,0.49639085065691246,4.355261049537345,0.6555378572133704
9.612292490857726,1.2427023156951842,0.9692767786030787,0.295400781373878,9.598261623679583,0.309264385401995,10.992928560154674,1.0683864403932755,9.824377663392598,0.503400785450321,4.397779996880851,0.6600284832925121
9.861335041841812,1.2640440548843928,0.9939937048946762,0.2994728409270396,9.84753231788038,0.31528482866490315,10.993388045816253,1.070329580663893,10.071382698808572,0.5111613327282407,4.440197874986655,0.6646094090578365
10.109252859445405,1.2848717969353234,1.019043429758089,0.3037825865917176,10.09558208988404,0.32221269760135124,10.993890342044006,1.0723363027239836,10.317094029227352,0.5189678887204949,4.482523280451559,0.6692200270654812
10.355466619166691,1.3051368693849872,1.0444591549822873,0.30816762737533476,10.342024342214726,0.32557638985997783,10.994445096390558,1.0733150557537072,10.561382288809636,0.5258760103610581,4.524718926945364,0.6731798855831584
10.600382289369009,1.3247879776160334,1.070157349862952,0.31210904906848486,10.587103891326745,0.32766072579415817,10.995044580005134,1.0731632231420098,10.804332603692632,0.530571570817699,4.5668237340524165,0.6763804522275083
10.843916103516676,1.3440749913068997,1.0961936684339066,0.3163332233731424,10.830807111001729,0.33273457665533573,10.995688291533995,1.0741183384745419,11.045980564371437,0.5375785136343706,4.60885341504425,0.6802750392774625
11.085560257357429,1.3624513838363563,1.1224935048579991,0.32046225746264684,11.072717575637895,0.337917285719886,10.996390541043803,1.0725878373908644,11.286097549514462,0.5412430896010533,4.650739417570602,0.6825542403215168
11.327009788132273,1.3808844786552423,1.149111846186816,0.3242957265080693,11.314114347599297,0.3377825514560244,10.997134740126542,1.0725160387383663,11.525097055443569,0.5472641820753849,4.692574684010237,0.6857401767292586
11.56623614959608,1.3986298775346337,1.1760194599268978,0.32834294298385797,11.553630878437039,0.3430763750609065,10.997923864074345,1.0724817097330588,11.762722874834466,0.5524926763972283,4.734346858887362,0.6889094281974907
11.804114068258059,1.415876772111371,1.203221739573347,0.3325344188099289,11.791688485732573,0.3473331305092826,10.998760621247857,1.0730898147443089,11.998986858700157,0.5585710387872709,4.7760535378063596,0.6924733092355194
12.040450841341226,1.4324428635707942,1.23068397299644,0.3366320560480015,12.028219694450163,0.350792435656869,10.999662353082778,1.0723956280065836,12.233738535600844,0.5641514130929541,4.8176070959260135,0.695197509895179
12.274281880807393,1.4483022835156878,1.2583959650215675,0.3404753887060707,12.262440422520502,0.3527334458997897,11.000611726546328,1.0728361656920136,12.466899516734305,0.5710913346249686,4.8590995032138,0.6986366484627037
12.50759219057727,1.4642381346017879,1.286391645444235,0.34454169398257994,12.495782797490106,0.3566619968761445,11.001611629509888,1.074173730253866,12.69865767531386,0.5789349111354307,4.900521508639241,0.702647408347902
12.7413398341414,1.4801688148134342,1.314602601772126,0.3485999666292035,12.729294519413399,0.36190642509420295,11.002672745774706,1.0748339150229822,12.929301662011525,0.5860767626090589,4.94181798570811,0.7062085329990977
12.9732431771954,1.4958595745250862,1.3430744959543774,0.3527779156928247,12.961365373974834,0.36575856094191556,11.003793887970625,1.0737540990594736,13.158706814155666,0.5900549112972029,4.982997002795494,0.7085816838838787
13.202823509742302,1.5107042696434718,1.3717809064536979,0.3565729552910335,13.191288882859649,0.36597492016818195,11.004967641037602,1.0727791495348913,13.386761397770877,0.5937128082722523,5.02411566160866,0.7109789651810496
13.431866393086239,1.525471201524574,1.4007376383497787,0.3603025396305101,13.420353726831928,0.36746649145692223,11.00618874399045,1.0736017531972573,13.613684709318063,0.5992803806412701,5.065221583826459,0.7145367050879031
13.658761669095838,1.5396700499114748,1.4299277265094317,0.36415329036049177,13.647526905286751,0.371302666712297,11.00747651720344,1.0736295623534007,13.839122983225055,0.6048068346174758,5.10619528437251,0.7175670902809029
13.885594404218864,1.5539465670904844,1.4593836821633954,0.3688324259738256,13.874270130078719,0.3798723089698097,11.008821427475166,1.0739634909864162,14.063431541582956,0.6102726712749275,5.147102785969869,0.7207761507739496
14.109456127418525,1.5674773917447498,1.4890322796643733,0.37257845630967884,14.098546261822893,0.3765085139548642,11.010227227270656,1.074777607476128,14.286229951015532,0.6168096636021642,5.187923633939329,0.724301557814177
14.33328860022084,1.5812341753365118,1.518869727745126,0.3765038843069225,14.32230932560583,0.3821237100748173,11.011692942199366,1.075410300152702,14.507813823081147,0.622246199975766,5.2286691775497305,0.7276771245204326
14.554629485352052,1.5941962121084976,1.5489454578390083,0.38066958427788283,14.543973702174826,0.3859456821359369,11.013215686016698,1.075402287738384,14.727982258393789,0.6247900254143964,5.269370752177368,0.7305631674274607
14.776537843401456,1.6073870571381368,1.5792282040995416,0.3849790802568607,14.765670653010499,0.3903459384640893,11.014817171508762,1.074077082523958,14.946983325919954,0.6291811484962014,5.3098803765381035,0.7325845451251543
14.99657630136062,1.6202103863516852,1.6097160199528673,0.38924162728612216,14.985877820488092,0.3930471417127996,11.016466845892063,1.074828282870827,15.164919261904254,0.6338016885653149,5.350429889416178,0.7359592789740834
15.215099773002294,1.6327469390027567,1.6403379558796953,0.3934200902700616,15.204573098911212,0.3988104405768062,11.018194294294682,1.0736387571440889,15.381456083175575,0.6378602227294317,5.390793956644518,0.7380174794224956
15.43069881039628,1.6446402395323132,1.6711629199588682,0.39725170645866603,15.420627091471081,0.3982921174275046,11.01997512667491,1.0740787138832673,15.596520558981117,0.6420310592693294,5.4311746137059735,0.7411407597752642
15.644564857491787,1.6561546562739848,1.7022110554834458,0.4011150183867428,15.634768627103016,0.39931286225045537,11.021824779484298,1.0748127764612718,15.809937084025908,0.6478279761202158,5.471453857059172,0.7444738292818573
15.858716621143685,1.6678805992086996,1.7334601572328632,0.4052349952325553,15.848753371057045,0.40342825191039206,11.023744779646373,1.0745342616796245,16.022054079389328,0.65220739874968,5.511615257923849,0.7470905605463819
16.072495371579862,1.6796627706456309,1.7648762563045386,0.4089715591959418,16.062405589569273,0.40364893918838507,11.025727722264719,1.0747179927572577,16.2331509823861,0.656088585478369,5.551737610148265,0.7499919261525062
16.2831006384622,1.6906928663613432,1.7964502276072658,0.41297598195927654,16.2734541496695,0.40973398427695695,11.027783707541827,1.074354724797492,16.44271600054845,0.6606669113249427,5.591729615361718,0.7525141531999242
16.49333679360643,1.7018511509582495,1.8282096902172824,0.4167252564140755,16.483683861286355,0.40969021907999664,11.029906558194206,1.0741328431963109,16.651036615773187,0.6648856494155134,5.631652961421044,0.7551075222097292
16.703234329954284,1.7130065232876484,1.8601120192720193,0.4206173621111035,16.69347951843124,0.4149893996296421,11.032097195811971,1.074678148445958,16.858298432745606,0.6703695797583316,5.671509703965497,0.7582274415090756
16.91204846810433,1.7240616564040834,1.892256613141359,0.4246924970235808,16.902321758736147,0.41542182781989795,11.03435715111818,1.074081375237523,17.064477048860013,0.6726078609555296,5.7112873930677,0.7604995396723924
17.117150384354318,1.7342015623272375,1.9245342781047792,0.4289752949456498,17.108002914734648,0.4217975769931076,11.03668875940613,1.0750748598952564,17.269070889851296,0.6797093611237314,5.75097234175409,0.7639183750196239
17.32216402087579,1.7445867765825898,1.9569364833617666,0.43300841080045005,17.312977456038595,0.4246085304839284,11.039091378016847,1.0751031271007532,17.472331645744497,0.6840728210493262,5.790559231160249,0.7666218786502508
17.525497565187834,1.7546709785226575,1.9894461640766188,0.436045164042189,17.516467554647235,0.4210812926649912,11.041565840658564,1.074746866960578,17.67421667142067,0.687907651157211,5.830048898252128,0.7690311948824037
17.728274659435556,1.7647378391454889,2.0221717928281646,0.4399197920762512,17.719219658793858,0.42700990069563344,11.044107327003125,1.0748812994473307,17.874973882115576,0.6904721217483449,5.869520647778357,0.7717436777253873
17.928287295962946,1.7743460659325943,2.0550236768244297,0.4435710929112148,17.91960710181575,0.4291515217374289,11.046722031763082,1.0752326284805527,18.07422665880839,0.6942819765745462,5.9089062508797,0.7746064148865054
18.129122997077502,1.784316664975932,2.0880565621032927,0.4474792972247844,18.1201813454706,0.43207489918997016,11.049415501905036,1.0732575287826414,18.27233132038606,0.6960223022164316,5.9481152319423085,0.7757861359782652
18.32778300924474,1.793926079565724,2.121193790326245,0.4507456296701129,18.31905069805349,0.43126465301996736,11.05217640917837,1.0738623903567874,18.469290101150833,0.7008621147371842,5.987337394336659,0.7787996549001094
18.524981668429973,1.803263061219784,2.1544863642047827,0.45399154839575,18.516411983129466,0.4323860230401437,11.055010854527115,1.0744198846663846,18.66493327038519,0.7051535501368127,6.026480853204365,0.7817626786804999
18.718210429633473,1.8117072534931526,2.1879657161461012,0.4578899454862351,18.710295982883228,0.4377138628200809,11.057921284716004,1.074155256429001,18.858701442340436,0.7088665013037652,6.065498508776414,0.7841207194645573
18.91257101410156,1.8205842509615113,2.221557074960883,0.46211670213476846,18.90438511822765,0.44468586387434256,11.060904250363956,1.07493973422802,19.051261921801235,0.7139185475375891,6.1044652351774245,0.7872279988425743
19.105237287101772,1.8291205704162528,2.2552860851182275,0.46601585248508803,19.097160336502697,0.44466296758980706,11.063962314699445,1.0750435972592896,19.242464990576103,0.7175755308495615,6.143330282622664,0.7898194120862155
19.29653080368371,1.8375845577451444,2.289196376108583,0.4702543360629888,19.288577538305727,0.44745789482408416,11.067097004054574,1.0746236865937253,19.432285187989223,0.7219892656925991,6.182058173014905,0.7920268622706247
19.486631819479953,1.845879084784155,2.3231843309827545,0.47375413482428497,19.478765537093306,0.4466691248005729,11.07030461572615,1.0748584306268198,19.62084276598036,0.7261324324468302,6.220739611720039,0.7946847934318827
19.674230234762945,1.8536665398770555,2.357294572305852,0.4771019262674669,19.666707844922527,0.44773442180656275,11.073586808146239,1.0751398336849927,19.807877319999726,0.7296781538955034,6.259349184910967,0.7973538147910835
19.861035836809606,1.8614726401662227,2.391482208748736,0.4802665306522849,19.85356445017626,0.45082871601874724,11.076943506278383,1.0759535114910455,19.993566194356923,0.7330039624864069,6.297915509397821,0.8003912833262284
20.047947380546248,1.8694631225182918,2.4258430407804026,0.4840859156977795,20.040289320212853,0.455769944005166,11.080376756537289,1.0767341527137144,20.178155071891013,0.7367602870974408,6.336392000033492,0.8033975107586452
20.231309629627503,1.8767437219604133,2.4603425653949613,0.4878001429563361,20.224148034037583,0.45645423978531624,11.08388647520545,1.0762997815878057,20.361161114403853,0.7376252197866049,6.374776445897237,0.8054675454473229
20.41491394642071,1.8843375486765124,2.4949169233063833,0.4909023284814344,20.40762601560871,0.45581806572385986,11.08747268485313,1.0785752534833501,20.543009302526865,0.7447679643984354,6.413120578314657,0.8095791763229397
20.597332675963116,1.8918874172662739,2.5296512219322107,0.49506904468598023,20.59008139494354,0.4644974889855318,11.091136216961804,1.0772992002771795,20.72354539305451,0.7447652787237617,6.451301015290495,0.8109939520541223
20.778852028859546,1.8994520384630116,2.5645024138650814,0.49844109713920076,20.771608881650206,0.4604207350116698,11.09487676848496,1.0778535057714278,20.902984988028738,0.7498044317969452,6.489416056315928,0.813789888484037
20.957634438411333,1.906408986011766,2.599482846586773,0.5022596898243971,20.950765663958904,0.4652652168727027,11.098693783360902,1.0781192448824917,21.080997831847576,0.7516908645763997,6.527488116242398,0.8163256544299183
21.135203509991698,1.9132921365230429,2.634533560540896,0.5056896517966006,21.128473258717083,0.4666923107653559,11.102588535627229,1.0778786958069944,21.257580125513467,0.7542195455235354,6.565439784476667,0.8184755547415493
21.309382750820077,1.9194754710931166,2.669724523238787,0.509361218633779,21.30318198923892,0.4690745815165657,11.106560418251215,1.0770289311717083,21.432368640501362,0.7554764177946521,6.603298213015438,0.8201387336526884
21.483904189306486,1.9259738103709176,2.705032208547626,0.5130080124598322,21.477562679102007,0.4705210312905608,11.110610042375345,1.078471528797247,21.605836053070337,0.761599117470023,6.64111468526233,0.8235482459075988
21.65909414656926,1.9328986642469417,2.740404779838247,0.5162369955014663,21.652411439301403,0.4713972766992701,11.114736186794474,1.0790190096954935,21.778263497919394,0.7667163959685452,6.678792120221566,0.8262732785341274
21.831637177347147,1.9393018517402947,2.7759232499602517,0.5197710853454011,21.825238728565814,0.47352550351519723,11.118939598616036,1.079329882203569,21.94941952627394,0.7690306936060405,6.716416952398192,0.8287790516095882
22.004378653189633,1.9461267937137134,2.8115877151488435,0.5233891904091915,21.99781914309316,0.4738791633448756,11.123220622844933,1.0798590544367468,22.11957582748655,0.7727013025377643,6.753946060248801,0.8314477568059828
22.175106369941204,1.9524982824156676,2.8472774919862167,0.5274766954366544,22.16873800587873,0.48437579084448124,11.127579305335802,1.0796716410631175,22.28853799534633,0.774108646994251,6.7913910785545575,0.8335371584121899
